# # Amplitude, Lyapunov, Variance
2.999999999999999889e-01 1.058668410237740137e-01 1.049137878931008655e-01
4.071428571428571397e-01 1.940199053706230803e-01 1.953061305160157246e-01
5.142857142857142350e-01 3.176072374740931958e-01 3.148859077333937551e-01
6.214285714285714413e-01 4.751660695472964546e-01 4.473218332832716859e-01
7.285714285714285365e-01 6.522507431567320380e-01 5.739648135095846149e-01
8.357142857142856318e-01 8.339479397633882130e-01 6.985095629808995010e-01
9.428571428571428381e-01 1.014440536560681672e+00 7.981613181002128465e-01
1.050000000000000044e+00 1.185925110001283755e+00 8.873076968795304831e-01
1.157142857142857029e+00 1.346195821114613222e+00 9.623961426494644922e-01
1.264285714285714235e+00 1.497026152994684667e+00 1.045364887072669946e+00
1.371428571428571441e+00 1.642183404076306363e+00 1.093566553405747044e+00
1.478571428571428648e+00 1.778816889015774505e+00 1.128991401530478722e+00
1.585714285714285632e+00 1.906605712031665734e+00 1.173431662249636354e+00
1.692857142857142838e+00 2.026057198923466363e+00 1.225772501959269345e+00
1.800000000000000044e+00 2.141265592831135045e+00 1.257358227099166781e+00
